freq,psd_x,psd_y,psd_z,psd_xyz
0.0,1.100e+01,4.026e+02,6.865e+00,4.204e+02
1.5,1.979e+01,2.919e+02,2.268e+01,3.344e+02
3.0,1.681e+01,8.838e+01,2.765e+01,1.328e+02
4.5,1.775e+01,3.298e+02,2.826e+01,3.758e+02
6.0,2.048e+01,1.170e+03,2.929e+01,1.220e+03
7.5,1.960e+01,1.961e+03,2.968e+01,2.010e+03
9.0,2.162e+01,2.838e+03,2.876e+01,2.888e+03
10.5,2.537e+01,4.029e+03,2.862e+01,4.083e+03
12.0,2.594e+01,5.618e+03,3.324e+01,5.677e+03
13.5,2.695e+01,5.571e+03,3.837e+01,5.637e+03
15.0,2.751e+01,5.670e+03,3.918e+01,5.736e+03
16.5,2.858e+01,7.618e+03,3.184e+01,7.678e+03
18.0,3.258e+01,9.908e+03,2.836e+01,9.969e+03
19.5,4.044e+01,1.189e+04,2.831e+01,1.196e+04
21.0,4.608e+01,1.265e+04,2.993e+01,1.272e+04
22.5,4.956e+01,1.512e+04,3.301e+01,1.521e+04
24.0,5.515e+01,1.838e+04,3.541e+01,1.847e+04
25.5,5.899e+01,2.184e+04,3.811e+01,2.194e+04
27.0,6.500e+01,2.556e+04,4.042e+01,2.567e+04
28.5,8.067e+01,2.934e+04,3.852e+01,2.946e+04
30.0,1.088e+02,3.379e+04,3.671e+01,3.393e+04
31.5,1.790e+02,3.902e+04,3.924e+01,3.924e+04
33.0,3.319e+02,4.407e+04,3.861e+01,4.444e+04
34.5,5.062e+02,5.002e+04,3.585e+01,5.056e+04
36.0,6.666e+02,5.618e+04,3.418e+01,5.688e+04
37.5,8.280e+02,6.496e+04,3.311e+01,6.583e+04
39.0,1.071e+03,7.370e+04,3.135e+01,7.480e+04
40.5,1.363e+03,8.241e+04,3.125e+01,8.380e+04
42.0,1.553e+03,9.654e+04,4.578e+01,9.814e+04
43.5,1.618e+03,1.110e+05,6.815e+01,1.127e+05
45.0,1.629e+03,1.213e+05,8.168e+01,1.230e+05
46.5,1.509e+03,1.295e+05,9.093e+01,1.311e+05
48.0,1.389e+03,1.333e+05,1.028e+02,1.348e+05
49.5,1.483e+03,1.342e+05,8.925e+01,1.358e+05
51.0,1.981e+03,1.397e+05,6.711e+01,1.417e+05
52.5,3.022e+03,1.596e+05,7.692e+01,1.627e+05
54.0,5.129e+03,1.954e+05,1.100e+02,2.006e+05
55.5,8.612e+03,2.366e+05,1.964e+02,2.454e+05
57.0,1.333e+04,2.661e+05,4.020e+02,2.798e+05
58.5,2.120e+04,2.950e+05,1.038e+03,3.172e+05
60.0,2.872e+04,3.437e+05,2.455e+03,3.749e+05
61.5,2.871e+04,3.912e+05,3.557e+03,4.234e+05
63.0,2.667e+04,4.311e+05,3.731e+03,4.615e+05
64.5,2.322e+04,4.593e+05,3.748e+03,4.862e+05
66.0,2.360e+04,5.072e+05,4.691e+03,5.355e+05
67.5,2.245e+04,5.352e+05,5.391e+03,5.631e+05
69.0,2.599e+04,5.792e+05,6.466e+03,6.116e+05
70.5,3.381e+04,6.808e+05,8.086e+03,7.227e+05
72.0,3.376e+04,8.092e+05,9.115e+03,8.521e+05
73.5,2.643e+04,9.543e+05,9.795e+03,9.906e+05
75.0,1.942e+04,1.136e+06,9.918e+03,1.166e+06
76.5,1.340e+04,1.372e+06,9.462e+03,1.395e+06
78.0,6.889e+03,1.457e+06,8.726e+03,1.473e+06
79.5,3.090e+03,1.455e+06,7.715e+03,1.466e+06
81.0,1.484e+03,1.344e+06,6.723e+03,1.352e+06
82.5,7.146e+02,1.092e+06,5.450e+03,1.098e+06
84.0,5.861e+02,9.064e+05,3.905e+03,9.109e+05
85.5,1.100e+03,8.292e+05,2.598e+03,8.329e+05
87.0,1.674e+03,8.140e+05,2.343e+03,8.180e+05
88.5,2.156e+03,7.908e+05,2.168e+03,7.951e+05
90.0,2.871e+03,7.440e+05,1.902e+03,7.487e+05
91.5,3.358e+03,6.686e+05,1.816e+03,6.738e+05
93.0,3.567e+03,5.969e+05,2.356e+03,6.028e+05
94.5,3.374e+03,4.986e+05,2.759e+03,5.047e+05
96.0,2.618e+03,3.930e+05,2.278e+03,3.979e+05
97.5,2.835e+03,3.918e+05,2.299e+03,3.970e+05
99.0,4.195e+03,4.146e+05,3.692e+03,4.225e+05
100.5,4.000e+03,3.903e+05,3.418e+03,3.977e+05
102.0,3.678e+03,3.396e+05,2.781e+03,3.461e+05
103.5,3.791e+03,2.864e+05,2.581e+03,2.928e+05
105.0,3.699e+03,2.139e+05,2.524e+03,2.201e+05
106.5,3.601e+03,1.677e+05,2.401e+03,1.737e+05
108.0,3.562e+03,1.457e+05,2.210e+03,1.515e+05
109.5,3.615e+03,1.258e+05,2.226e+03,1.317e+05
111.0,3.673e+03,1.106e+05,2.317e+03,1.166e+05
112.5,3.413e+03,1.019e+05,3.288e+03,1.086e+05
114.0,3.259e+03,9.943e+04,5.261e+03,1.080e+05
115.5,3.395e+03,9.817e+04,5.343e+03,1.069e+05
117.0,2.974e+03,1.044e+05,5.470e+03,1.128e+05
118.5,1.957e+03,1.105e+05,5.872e+03,1.184e+05
120.0,1.077e+03,1.159e+05,6.569e+03,1.235e+05
121.5,1.020e+03,1.194e+05,7.256e+03,1.277e+05
123.0,1.164e+03,1.124e+05,7.217e+03,1.208e+05
124.5,1.308e+03,9.635e+04,6.995e+03,1.047e+05
126.0,1.200e+03,9.287e+04,6.259e+03,1.003e+05
127.5,1.214e+03,9.125e+04,5.844e+03,9.831e+04
129.0,1.275e+03,8.602e+04,5.339e+03,9.263e+04
130.5,1.379e+03,8.213e+04,4.790e+03,8.830e+04
132.0,1.435e+03,7.330e+04,3.969e+03,7.870e+04
133.5,9.557e+02,3.439e+04,1.689e+03,3.703e+04
135.0,6.407e+02,1.097e+04,3.743e+02,1.198e+04
136.5,6.986e+02,1.048e+04,3.498e+02,1.153e+04
138.0,7.887e+02,1.041e+04,3.388e+02,1.154e+04
139.5,8.594e+02,1.018e+04,3.131e+02,1.135e+04
141.0,9.159e+02,9.903e+03,3.167e+02,1.114e+04
142.5,9.106e+02,9.497e+03,3.205e+02,1.073e+04
143.9,8.375e+02,8.872e+03,3.340e+02,1.004e+04
145.4,7.819e+02,8.467e+03,3.481e+02,9.597e+03
146.9,7.530e+02,8.163e+03,3.500e+02,9.266e+03
148.4,7.626e+02,8.337e+03,3.423e+02,9.442e+03
149.9,8.745e+02,9.309e+03,3.524e+02,1.054e+04
151.4,9.432e+02,8.981e+03,3.144e+02,1.024e+04
152.9,9.803e+02,8.282e+03,2.948e+02,9.557e+03
154.4,9.853e+02,7.629e+03,2.857e+02,8.900e+03
155.9,1.041e+03,7.374e+03,2.757e+02,8.691e+03
157.4,1.106e+03,7.632e+03,2.697e+02,9.007e+03
158.9,1.181e+03,8.320e+03,2.781e+02,9.779e+03
160.4,1.295e+03,1.011e+04,3.760e+02,1.178e+04
161.9,1.306e+03,1.219e+04,4.604e+02,1.395e+04
163.4,1.224e+03,1.365e+04,5.130e+02,1.538e+04
164.9,1.129e+03,1.488e+04,5.895e+02,1.660e+04
166.4,1.038e+03,1.557e+04,6.335e+02,1.724e+04
167.9,9.613e+02,1.622e+04,6.461e+02,1.782e+04
169.4,1.017e+03,1.778e+04,7.502e+02,1.954e+04
170.9,1.213e+03,2.310e+04,9.818e+02,2.529e+04
172.4,1.580e+03,3.248e+04,1.362e+03,3.542e+04
173.9,1.717e+03,3.564e+04,1.522e+03,3.887e+04
175.4,1.688e+03,3.482e+04,1.503e+03,3.801e+04
176.9,1.630e+03,3.378e+04,1.489e+03,3.690e+04
178.4,1.638e+03,3.294e+04,1.460e+03,3.604e+04
179.9,1.685e+03,3.242e+04,1.450e+03,3.556e+04
181.4,1.762e+03,3.274e+04,1.463e+03,3.596e+04
182.9,1.797e+03,3.338e+04,1.421e+03,3.660e+04
184.4,1.820e+03,3.377e+04,1.363e+03,3.695e+04
185.9,1.858e+03,3.329e+04,1.381e+03,3.653e+04
187.4,1.873e+03,3.310e+04,1.434e+03,3.641e+04
188.9,1.945e+03,3.262e+04,1.531e+03,3.609e+04
190.4,2.037e+03,3.237e+04,1.629e+03,3.604e+04
191.9,2.143e+03,3.194e+04,1.682e+03,3.577e+04
193.4,2.296e+03,3.271e+04,1.811e+03,3.682e+04
194.9,2.366e+03,3.275e+04,1.841e+03,3.696e+04
196.4,2.367e+03,3.229e+04,1.826e+03,3.649e+04
197.9,2.482e+03,3.266e+04,1.863e+03,3.700e+04
199.4,2.623e+03,3.356e+04,2.004e+03,3.818e+04
