freq,psd_x,psd_y,psd_z,psd_xyz
0.0,8.342e+02,9.550e+00,8.575e+00,8.524e+02
1.6,4.745e+02,3.225e+01,1.915e+01,5.258e+02
3.1,2.875e+01,3.564e+01,1.926e+01,8.365e+01
4.7,3.680e+02,3.740e+01,2.090e+01,4.263e+02
6.3,1.212e+03,4.377e+01,1.973e+01,1.276e+03
7.9,1.749e+03,3.715e+01,2.032e+01,1.807e+03
9.4,2.356e+03,3.314e+01,1.982e+01,2.409e+03
11.0,3.251e+03,3.450e+01,2.199e+01,3.308e+03
12.6,4.242e+03,3.392e+01,2.868e+01,4.304e+03
14.2,5.407e+03,3.462e+01,5.124e+01,5.493e+03
15.7,6.713e+03,3.496e+01,9.014e+01,6.838e+03
17.3,8.149e+03,3.767e+01,1.440e+02,8.330e+03
18.9,9.582e+03,3.692e+01,1.312e+02,9.750e+03
20.5,1.117e+04,3.765e+01,6.927e+01,1.128e+04
22.0,1.305e+04,4.538e+01,3.839e+01,1.313e+04
23.6,1.518e+04,4.265e+01,2.646e+01,1.525e+04
25.2,1.750e+04,4.002e+01,2.461e+01,1.757e+04
26.7,1.997e+04,4.102e+01,2.237e+01,2.004e+04
28.3,2.290e+04,4.109e+01,2.399e+01,2.297e+04
29.9,2.577e+04,4.695e+01,2.626e+01,2.585e+04
31.5,2.877e+04,4.490e+01,2.716e+01,2.884e+04
33.0,3.200e+04,4.700e+01,2.905e+01,3.207e+04
34.6,3.574e+04,5.417e+01,3.215e+01,3.583e+04
36.2,3.965e+04,5.227e+01,3.256e+01,3.974e+04
37.8,4.469e+04,4.627e+01,3.510e+01,4.477e+04
39.3,4.966e+04,4.765e+01,4.343e+01,4.975e+04
40.9,5.723e+04,4.525e+01,6.111e+01,5.733e+04
42.5,6.615e+04,6.084e+01,6.929e+01,6.628e+04
44.1,7.469e+04,9.457e+01,6.623e+01,7.485e+04
45.6,8.678e+04,1.187e+02,6.521e+01,8.697e+04
47.2,1.007e+05,1.520e+02,7.839e+01,1.009e+05
48.8,1.113e+05,1.813e+02,7.658e+01,1.116e+05
50.3,1.215e+05,2.226e+02,7.010e+01,1.218e+05
51.9,1.422e+05,2.859e+02,6.203e+01,1.425e+05
53.5,1.622e+05,3.097e+02,4.786e+01,1.625e+05
55.1,1.896e+05,3.601e+02,3.458e+01,1.900e+05
56.6,2.201e+05,4.497e+02,3.899e+01,2.206e+05
58.2,2.554e+05,5.753e+02,9.679e+01,2.561e+05
59.8,3.098e+05,7.924e+02,2.293e+02,3.108e+05
61.4,3.573e+05,9.999e+02,3.461e+02,3.586e+05
62.9,4.191e+05,9.668e+02,4.002e+02,4.204e+05
64.5,5.366e+05,9.802e+02,3.156e+02,5.379e+05
66.1,6.504e+05,1.334e+03,2.375e+02,6.520e+05
67.7,7.818e+05,2.239e+03,4.340e+02,7.845e+05
69.2,1.008e+06,6.529e+03,1.018e+03,1.015e+06
70.8,1.333e+06,1.158e+04,1.269e+03,1.345e+06
72.4,1.542e+06,8.718e+03,4.468e+02,1.552e+06
73.9,1.703e+06,5.755e+03,3.150e+02,1.709e+06
75.5,2.006e+06,4.665e+03,7.654e+02,2.012e+06
77.1,2.519e+06,5.902e+03,1.294e+03,2.526e+06
78.7,3.142e+06,1.053e+04,2.244e+03,3.155e+06
80.2,3.898e+06,1.818e+04,4.076e+03,3.920e+06
81.8,4.440e+06,2.268e+04,5.412e+03,4.468e+06
83.4,4.379e+06,2.273e+04,5.677e+03,4.407e+06
85.0,4.134e+06,2.402e+04,7.016e+03,4.165e+06
86.5,3.803e+06,2.496e+04,1.074e+04,3.838e+06
88.1,3.508e+06,2.661e+04,1.643e+04,3.551e+06
89.7,3.128e+06,2.522e+04,2.396e+04,3.178e+06
91.2,2.816e+06,2.235e+04,3.411e+04,2.872e+06
92.8,2.523e+06,1.846e+04,4.460e+04,2.586e+06
94.4,2.303e+06,1.466e+04,4.763e+04,2.366e+06
96.0,2.045e+06,1.168e+04,4.154e+04,2.098e+06
97.5,1.735e+06,8.811e+03,3.319e+04,1.777e+06
99.1,1.584e+06,8.087e+03,2.468e+04,1.617e+06
100.7,1.441e+06,8.153e+03,2.077e+04,1.470e+06
102.3,1.284e+06,6.455e+03,2.270e+04,1.313e+06
103.8,1.102e+06,4.369e+03,2.502e+04,1.131e+06
105.4,8.890e+05,2.638e+03,2.498e+04,9.166e+05
107.0,7.796e+05,2.079e+03,2.386e+04,8.055e+05
108.6,6.927e+05,1.964e+03,2.146e+04,7.162e+05
110.1,6.173e+05,1.941e+03,1.979e+04,6.391e+05
111.7,5.306e+05,1.921e+03,1.801e+04,5.505e+05
113.3,4.406e+05,1.816e+03,1.445e+04,4.569e+05
114.8,3.516e+05,1.567e+03,1.132e+04,3.645e+05
116.4,2.758e+05,1.396e+03,8.463e+03,2.856e+05
118.0,2.219e+05,1.397e+03,5.254e+03,2.286e+05
119.6,1.955e+05,1.414e+03,3.333e+03,2.003e+05
121.1,1.940e+05,1.370e+03,2.833e+03,1.982e+05
122.7,1.996e+05,1.417e+03,2.717e+03,2.038e+05
124.3,2.093e+05,1.537e+03,2.777e+03,2.136e+05
125.9,2.182e+05,1.708e+03,2.892e+03,2.228e+05
127.4,2.372e+05,2.196e+03,2.901e+03,2.423e+05
129.0,2.620e+05,2.899e+03,2.771e+03,2.677e+05
130.6,2.731e+05,3.445e+03,2.028e+03,2.786e+05
132.2,2.393e+05,3.418e+03,1.165e+03,2.438e+05
133.7,8.706e+04,1.320e+03,4.749e+02,8.886e+04
135.3,1.179e+04,1.901e+02,2.458e+02,1.222e+04
136.9,1.033e+04,1.737e+02,2.444e+02,1.074e+04
138.4,1.164e+04,2.184e+02,2.595e+02,1.212e+04
140.0,1.400e+04,2.683e+02,2.631e+02,1.453e+04
141.6,1.544e+04,3.038e+02,2.254e+02,1.597e+04
143.2,1.530e+04,2.944e+02,1.913e+02,1.579e+04
144.7,1.746e+04,3.096e+02,1.676e+02,1.794e+04
146.3,2.175e+04,3.668e+02,1.389e+02,2.225e+04
147.9,2.564e+04,4.252e+02,1.271e+02,2.620e+04
149.5,3.440e+04,5.080e+02,2.017e+02,3.511e+04
151.0,3.903e+04,5.335e+02,3.275e+02,3.989e+04
152.6,3.756e+04,4.937e+02,4.375e+02,3.850e+04
154.2,3.892e+04,4.767e+02,5.107e+02,3.990e+04
155.8,4.253e+04,4.861e+02,5.053e+02,4.352e+04
157.3,4.618e+04,5.249e+02,4.510e+02,4.715e+04
158.9,4.778e+04,6.681e+02,4.687e+02,4.891e+04
160.5,4.939e+04,8.115e+02,4.445e+02,5.065e+04
162.0,4.821e+04,9.355e+02,4.315e+02,4.958e+04
163.6,4.569e+04,1.098e+03,4.959e+02,4.728e+04
165.2,4.181e+04,1.231e+03,5.569e+02,4.360e+04
166.8,3.636e+04,1.221e+03,6.180e+02,3.820e+04
168.3,3.161e+04,1.188e+03,7.782e+02,3.358e+04
169.9,3.015e+04,1.287e+03,1.023e+03,3.246e+04
171.5,3.258e+04,1.623e+03,1.414e+03,3.561e+04
173.1,3.249e+04,1.949e+03,1.990e+03,3.642e+04
174.6,2.768e+04,1.960e+03,2.262e+03,3.190e+04
176.2,2.525e+04,1.965e+03,2.313e+03,2.953e+04
177.8,2.013e+04,1.720e+03,2.180e+03,2.403e+04
179.4,1.597e+04,1.657e+03,2.085e+03,1.971e+04
180.9,1.299e+04,1.552e+03,1.970e+03,1.651e+04
182.5,1.122e+04,1.508e+03,1.959e+03,1.469e+04
184.1,1.023e+04,1.560e+03,1.998e+03,1.379e+04
185.6,9.405e+03,1.510e+03,1.646e+03,1.256e+04
187.2,8.475e+03,1.317e+03,1.690e+03,1.148e+04
188.8,8.643e+03,1.305e+03,2.146e+03,1.209e+04
190.4,9.425e+03,1.308e+03,2.556e+03,1.329e+04
191.9,1.069e+04,1.372e+03,2.942e+03,1.501e+04
193.5,1.142e+04,1.406e+03,3.449e+03,1.627e+04
195.1,1.236e+04,1.305e+03,3.920e+03,1.758e+04
196.7,1.223e+04,8.910e+02,3.089e+03,1.621e+04
198.2,1.335e+04,9.189e+02,3.321e+03,1.760e+04
199.8,1.374e+04,1.060e+03,4.012e+03,1.881e+04
