freq,psd_x,psd_y,psd_z,psd_xyz
0.0,5.194e+02,2.112e+01,1.884e+01,5.594e+02
1.5,3.016e+02,4.383e+01,4.284e+01,3.883e+02
3.1,3.727e+01,4.382e+01,4.659e+01,1.277e+02
4.6,3.420e+02,4.514e+01,4.138e+01,4.285e+02
6.2,1.225e+03,4.507e+01,4.130e+01,1.312e+03
7.7,2.114e+03,4.780e+01,4.037e+01,2.202e+03
9.2,3.096e+03,8.218e+01,4.007e+01,3.218e+03
10.8,3.656e+03,1.098e+02,4.581e+01,3.812e+03
12.3,3.741e+03,7.608e+01,4.624e+01,3.863e+03
13.9,4.778e+03,5.018e+01,4.518e+01,4.873e+03
15.4,6.284e+03,4.930e+01,4.215e+01,6.375e+03
16.9,8.012e+03,4.563e+01,4.125e+01,8.099e+03
18.5,9.933e+03,4.357e+01,4.367e+01,1.002e+04
20.0,1.207e+04,4.975e+01,4.410e+01,1.217e+04
21.6,1.458e+04,5.307e+01,4.186e+01,1.468e+04
23.1,1.726e+04,5.897e+01,4.369e+01,1.737e+04
24.7,2.009e+04,6.277e+01,4.924e+01,2.020e+04
26.2,2.359e+04,5.671e+01,5.408e+01,2.370e+04
27.7,2.756e+04,5.400e+01,5.385e+01,2.767e+04
29.3,3.165e+04,5.883e+01,4.757e+01,3.175e+04
30.8,3.721e+04,6.345e+01,4.240e+01,3.731e+04
32.4,4.332e+04,7.006e+01,3.915e+01,4.343e+04
33.9,5.005e+04,6.505e+01,4.264e+01,5.015e+04
35.4,5.841e+04,7.836e+01,5.199e+01,5.854e+04
37.0,6.895e+04,9.400e+01,6.849e+01,6.912e+04
38.5,8.123e+04,1.492e+02,1.131e+02,8.149e+04
40.1,9.591e+04,4.209e+02,2.428e+02,9.658e+04
41.6,1.182e+05,1.100e+03,4.917e+02,1.198e+05
43.1,1.423e+05,1.711e+03,6.028e+02,1.446e+05
44.7,1.676e+05,2.394e+03,5.277e+02,1.705e+05
46.2,2.074e+05,3.137e+03,3.959e+02,2.109e+05
47.8,2.594e+05,3.433e+03,2.783e+02,2.632e+05
49.3,3.094e+05,2.905e+03,3.552e+02,3.126e+05
50.8,3.714e+05,1.950e+03,8.675e+02,3.742e+05
52.4,4.675e+05,1.407e+03,1.656e+03,4.706e+05
53.9,6.082e+05,1.479e+03,2.442e+03,6.122e+05
55.5,8.098e+05,2.518e+03,2.566e+03,8.149e+05
57.0,9.960e+05,3.086e+03,2.806e+03,1.002e+06
58.5,1.267e+06,3.806e+03,3.880e+03,1.274e+06
60.1,1.693e+06,6.001e+03,4.796e+03,1.704e+06
61.6,1.966e+06,7.818e+03,4.067e+03,1.978e+06
63.2,1.823e+06,9.171e+03,1.543e+03,1.834e+06
64.7,1.396e+06,9.767e+03,7.927e+02,1.407e+06
66.3,9.557e+05,9.375e+03,1.394e+03,9.665e+05
67.8,6.201e+05,8.286e+03,2.132e+03,6.305e+05
69.3,4.911e+05,8.793e+03,3.442e+03,5.033e+05
70.9,4.342e+05,9.581e+03,4.733e+03,4.485e+05
72.4,3.566e+05,9.812e+03,5.103e+03,3.715e+05
74.0,2.869e+05,1.051e+04,5.088e+03,3.025e+05
75.5,2.361e+05,1.094e+04,5.603e+03,2.526e+05
77.0,2.032e+05,1.090e+04,5.781e+03,2.199e+05
78.6,1.787e+05,1.110e+04,5.533e+03,1.953e+05
80.1,1.539e+05,1.157e+04,5.424e+03,1.709e+05
81.7,1.346e+05,1.163e+04,5.442e+03,1.516e+05
83.2,1.241e+05,1.104e+04,4.884e+03,1.400e+05
84.7,1.214e+05,1.105e+04,4.756e+03,1.372e+05
86.3,1.241e+05,1.206e+04,5.289e+03,1.415e+05
87.8,1.275e+05,1.319e+04,5.903e+03,1.466e+05
89.4,1.291e+05,1.424e+04,6.949e+03,1.503e+05
90.9,1.342e+05,1.542e+04,8.505e+03,1.581e+05
92.4,1.500e+05,1.752e+04,1.107e+04,1.786e+05
94.0,1.723e+05,2.029e+04,1.486e+04,2.075e+05
95.5,1.962e+05,2.279e+04,1.926e+04,2.382e+05
97.1,2.235e+05,2.457e+04,2.409e+04,2.722e+05
98.6,2.429e+05,2.406e+04,2.700e+04,2.940e+05
100.1,2.607e+05,2.283e+04,3.205e+04,3.156e+05
101.7,2.579e+05,1.834e+04,4.101e+04,3.173e+05
103.2,2.489e+05,1.096e+04,4.644e+04,3.063e+05
104.8,2.544e+05,5.708e+03,4.248e+04,3.026e+05
106.3,2.749e+05,3.687e+03,3.599e+04,3.146e+05
107.8,2.904e+05,4.037e+03,3.410e+04,3.285e+05
109.4,2.642e+05,4.803e+03,3.169e+04,3.007e+05
110.9,2.288e+05,6.227e+03,2.887e+04,2.639e+05
112.5,2.149e+05,8.517e+03,2.493e+04,2.484e+05
114.0,2.061e+05,1.081e+04,2.084e+04,2.377e+05
115.6,1.861e+05,1.250e+04,1.770e+04,2.163e+05
117.1,1.758e+05,1.507e+04,1.676e+04,2.076e+05
118.6,1.965e+05,2.108e+04,1.879e+04,2.364e+05
120.2,2.755e+05,3.270e+04,2.181e+04,3.300e+05
121.7,3.812e+05,4.663e+04,2.446e+04,4.523e+05
123.3,4.826e+05,6.050e+04,2.595e+04,5.690e+05
124.8,5.472e+05,7.128e+04,2.319e+04,6.417e+05
126.3,5.991e+05,8.332e+04,2.072e+04,7.031e+05
127.9,6.457e+05,8.894e+04,2.004e+04,7.547e+05
129.4,6.601e+05,8.391e+04,1.987e+04,7.639e+05
131.0,7.136e+05,8.075e+04,1.942e+04,8.138e+05
132.5,5.987e+05,6.282e+04,1.455e+04,6.761e+05
134.0,1.521e+05,1.582e+04,4.487e+03,1.724e+05
135.6,4.723e+04,5.578e+03,1.458e+03,5.427e+04
137.1,5.074e+04,6.284e+03,8.034e+02,5.783e+04
138.7,4.818e+04,6.029e+03,7.175e+02,5.492e+04
140.2,4.772e+04,6.083e+03,1.083e+03,5.489e+04
141.7,5.131e+04,6.985e+03,1.169e+03,5.947e+04
143.3,5.509e+04,8.377e+03,9.937e+02,6.446e+04
144.8,5.652e+04,9.557e+03,9.072e+02,6.699e+04
146.4,6.089e+04,1.184e+04,1.130e+03,7.386e+04
147.9,6.691e+04,1.466e+04,1.781e+03,8.336e+04
149.4,7.818e+04,1.937e+04,3.378e+03,1.009e+05
151.0,8.342e+04,2.406e+04,5.931e+03,1.134e+05
152.5,8.568e+04,2.906e+04,9.660e+03,1.244e+05
154.1,8.894e+04,3.492e+04,1.453e+04,1.384e+05
155.6,9.197e+04,4.043e+04,2.037e+04,1.528e+05
157.2,9.350e+04,4.494e+04,2.623e+04,1.647e+05
158.7,9.409e+04,4.695e+04,3.065e+04,1.717e+05
160.2,9.390e+04,4.612e+04,3.349e+04,1.735e+05
161.8,9.683e+04,4.520e+04,3.575e+04,1.778e+05
163.3,1.024e+05,4.408e+04,3.820e+04,1.847e+05
164.9,1.088e+05,4.332e+04,4.095e+04,1.931e+05
166.4,1.168e+05,4.391e+04,4.397e+04,2.047e+05
167.9,1.231e+05,4.410e+04,4.657e+04,2.137e+05
169.5,1.252e+05,4.351e+04,4.830e+04,2.170e+05
171.0,1.332e+05,4.571e+04,5.292e+04,2.319e+05
172.6,1.460e+05,4.855e+04,5.868e+04,2.533e+05
174.1,1.434e+05,4.459e+04,5.783e+04,2.459e+05
175.6,1.353e+05,4.133e+04,5.648e+04,2.331e+05
177.2,1.280e+05,3.898e+04,5.556e+04,2.225e+05
178.7,1.218e+05,3.693e+04,5.447e+04,2.132e+05
180.3,1.089e+05,3.316e+04,5.110e+04,1.932e+05
181.8,9.567e+04,3.022e+04,4.857e+04,1.745e+05
183.3,8.104e+04,2.645e+04,4.427e+04,1.518e+05
184.9,6.636e+04,2.253e+04,3.873e+04,1.276e+05
186.4,5.363e+04,1.907e+04,3.365e+04,1.063e+05
188.0,4.550e+04,1.602e+04,2.940e+04,9.092e+04
189.5,3.755e+04,1.278e+04,2.498e+04,7.531e+04
191.0,3.176e+04,1.043e+04,2.199e+04,6.418e+04
192.6,2.749e+04,8.513e+03,1.975e+04,5.576e+04
194.1,2.477e+04,7.359e+03,1.822e+04,5.035e+04
195.7,2.115e+04,6.220e+03,1.644e+04,4.381e+04
197.2,1.680e+04,4.411e+03,1.363e+04,3.484e+04
198.8,1.474e+04,3.291e+03,1.078e+04,2.881e+04
